  -45.0000000       3.24854952E-08
  -44.5000000       5.11123588E-08
  -44.0000000      -1.67679932E-08
  -43.5000000      -6.79062069E-08
  -43.0000000       8.22041883E-08
  -42.5000000      -4.69007517E-08
  -42.0000000      -3.61416674E-08
  -41.5000000       7.12894774E-08
  -41.0000000       8.06981006E-08
  -40.5000000      -1.70247141E-08
  -40.0000000      -4.90753713E-08
  -39.5000000       7.43847721E-08
  -39.0000000       1.37591338E-09
  -38.5000000      -9.98589940E-08
  -38.0000000       8.33489722E-08
  -37.5000000       1.63998621E-07
  -37.0000000      -1.66477889E-07
  -36.5000000       2.17359872E-08
  -36.0000000      -2.13115698E-07
  -35.5000000       1.46571139E-07
  -35.0000000       1.24191018E-07
  -34.5000000      -1.83828959E-07
  -34.0000000       2.87832194E-07
  -33.5000000      -7.77022535E-08
  -33.0000000      -8.16482242E-08
  -32.5000000      -9.45232301E-08
  -32.0000000      -8.98815884E-08
  -31.5000000       5.32858699E-08
  -31.0000000       6.67758115E-08
  -30.5000000      -3.82355347E-09
  -30.0000000      -1.23947146E-08
  -29.5000000       1.02964348E-08
  -29.0000000       6.78982204E-08
  -28.5000000       1.50140007E-08
  -28.0000000      -9.91495028E-08
  -27.5000000       7.02594107E-08
  -27.0000000      -2.76681948E-08
  -26.5000000      -5.39324567E-08
  -26.0000000      -3.35271566E-09
  -25.5000000      -2.82453616E-08
  -25.0000000       2.60061679E-08
  -24.5000000       1.69655962E-07
  -24.0000000       6.42966853E-08
  -23.5000000      -4.20148805E-09
  -23.0000000      -2.52788340E-07
  -22.5000000      -1.61066360E-08
  -22.0000000       3.28852536E-08
  -21.5000000      -1.29009834E-07
  -21.0000000       1.61819969E-07
  -20.5000000       2.84343553E-08
  -20.0000000       4.80977072E-08
  -19.5000000       5.23373878E-08
  -19.0000000       7.78065115E-08
  -18.5000000      -5.64467335E-08
  -18.0000000      -9.98782639E-08
  -17.5000000      -8.39927523E-08
  -17.0000000       6.16969800E-08
  -16.5000000       7.20387661E-08
  -16.0000000      -3.10803365E-08
  -15.5000000       3.08132861E-08
  -15.0000000      -4.91867880E-08
  -14.5000000       1.06884999E-08
  -14.0000000      -5.61815021E-08
  -13.5000000       9.39312059E-08
  -13.0000000       2.50873242E-08
  -12.5000000       2.44744260E-08
  -12.0000000       1.20156449E-06
  -11.5000000       1.51812797E-04
  -11.0000000       1.30005600E-03
  -10.5000000       1.66237645E-04
  -10.0000000      -1.27335917E-03
  -9.50000000      -1.19280384E-03
  -9.00000000      -1.91284670E-03
  -8.50000000      -1.55734451E-05
  -8.00000000      -1.13870716E-03
  -7.50000000       1.27344206E-03
  -7.00000000      -1.04694662E-03
  -6.50000000       9.15380660E-04
  -6.00000000      -1.92500791E-03
  -5.50000000       1.34874275E-03
  -5.00000000      -2.06351071E-03
  -4.50000000       1.53920590E-03
  -4.00000000      -1.60930259E-03
  -3.50000000       1.63087039E-03
  -3.00000000      -1.25885417E-03
  -2.50000000       7.01041485E-04
  -2.00000000      -3.85664229E-04
  -1.50000000       2.78428633E-04
  -1.00000000       1.47231214E-04
 -0.500000000       5.66921420E-02
   0.00000000      0.373895109    
  0.500000000      0.317783505    
   1.00000000      0.104618855    
   1.50000000       1.18080266E-02
   2.00000000     -0.115036227    
   2.50000000      -3.79207693E-02
   3.00000000      -2.31162738E-02
   3.50000000       8.74519721E-02
   4.00000000      0.119519994    
   4.50000000       5.03655337E-03
   5.00000000       6.69565611E-03
   5.50000000      -5.19918371E-03
   6.00000000      -3.76786143E-02
   6.50000000      -3.74110639E-02
   7.00000000      -4.83696209E-03
   7.50000000       1.62739772E-02
   8.00000000      -1.09053813E-02
   8.50000000      -5.09250425E-02
   9.00000000      -3.05248797E-02
   9.50000000       1.45492647E-02
   10.0000000       1.83011387E-02
   10.5000000       4.19156300E-03
   11.0000000       2.57280320E-02
   11.5000000       1.68862920E-02
   12.0000000      -2.54854895E-02
   12.5000000      -3.63292955E-02
   13.0000000       5.21815382E-03
   13.5000000       3.14622372E-02
   14.0000000       7.00034853E-03
   14.5000000      -1.07285436E-02
   15.0000000      -3.17043141E-02
   15.5000000      -1.57446675E-02
   16.0000000       2.58294260E-03
   16.5000000      -9.37438477E-03
   17.0000000      -1.32257054E-02
   17.5000000      -1.26392022E-02
   18.0000000      -1.76234487E-02
   18.5000000      -2.31187195E-02
   19.0000000      -3.21671404E-02
   19.5000000      -2.53261626E-02
   20.0000000      -1.02398703E-02
   20.5000000       4.72111115E-03
   21.0000000       1.53371543E-02
   21.5000000       1.73838120E-02
   22.0000000       1.48958946E-02
   22.5000000       1.25543913E-02
   23.0000000      -6.63359126E-04
   23.5000000      -1.26570221E-02
   24.0000000      -3.40808881E-03
   24.5000000      -1.80695904E-03
   25.0000000      -4.46353341E-03
   25.5000000       7.48227956E-03
   26.0000000       2.15408783E-02
   26.5000000       2.60725082E-03
   27.0000000      -4.53675166E-03
   27.5000000       5.11490274E-03
   28.0000000      -6.75286457E-04
   28.5000000      -1.97800696E-02
   29.0000000      -2.15497669E-02
   29.5000000       6.46096282E-03
   30.0000000       1.33578880E-02
   30.5000000       1.34139508E-02
   31.0000000       2.26076562E-02
   31.5000000       1.43869054E-02
   32.0000000      -8.04236997E-03
   32.5000000      -7.42782699E-03
   33.0000000       4.22763551E-04
   33.5000000       1.45565008E-03
   34.0000000      -2.57719029E-03
   34.5000000      -1.18138921E-02
   35.0000000       2.17284821E-03
   35.5000000      -1.66599391E-04
   36.0000000      -1.79539307E-03
   36.5000000      -6.68416359E-03
   37.0000000      -1.33719062E-02
   37.5000000      -2.20864764E-04
   38.0000000      -8.13485403E-03
   38.5000000      -9.53994971E-03
   39.0000000       1.03600184E-03
   39.5000000       6.90534199E-03
   40.0000000       1.04263052E-02
   40.5000000       7.65053229E-03
   41.0000000       8.83291569E-03
   41.5000000       2.06643846E-02
   42.0000000       2.57468149E-02
   42.5000000       1.37666566E-02
   43.0000000       7.70734577E-03
   43.5000000       9.63307545E-03
   44.0000000       7.51748867E-03
   44.5000000       5.84911881E-03
   45.0000000       4.89338813E-03
   45.5000000      -3.25521047E-04
   46.0000000      -1.09881544E-02
   46.5000000      -4.26590536E-03
   47.0000000      -3.28263501E-03
   47.5000000      -1.22674201E-02
   48.0000000       5.30613703E-04
   48.5000000       1.56460516E-02
   49.0000000       9.34323296E-03
   49.5000000       2.92741694E-03
   50.0000000      -1.60273362E-03
   50.5000000      -7.12361652E-03
   51.0000000      -3.66348238E-03
   51.5000000      -3.44459410E-03
   52.0000000      -3.11184279E-03
   52.5000000      -7.26886035E-04
   53.0000000      -8.75527679E-04
   53.5000000       8.40562047E-04
   54.0000000       5.95414173E-03
   54.5000000       5.00769494E-03
   55.0000000       5.38368383E-03
   55.5000000       5.45163127E-03
   56.0000000       2.60127848E-03
   56.5000000      -8.92722281E-04
   57.0000000      -1.74679881E-04
   57.5000000       4.99687623E-04
   58.0000000      -6.70119748E-03
   58.5000000      -4.07846924E-03
   59.0000000       5.15495660E-03
   59.5000000       1.08024860E-02
   60.0000000       1.50375732E-03
   60.5000000      -1.80244669E-02
   61.0000000      -1.75776593E-02
   61.5000000      -3.05904029E-03
   62.0000000       3.36086727E-03
   62.5000000       5.91723714E-03
   63.0000000       3.83653212E-04
   63.5000000      -9.32035036E-03
   64.0000000      -6.48110686E-03
   64.5000000      -7.30433222E-03
   65.0000000       2.42427632E-04
   65.5000000       4.36420692E-03
   66.0000000      -3.60698509E-03
   66.5000000      -5.79295028E-03
   67.0000000      -3.85318976E-03
   67.5000000       4.57235379E-03
   68.0000000       2.87410663E-03
   68.5000000      -8.41831136E-03
   69.0000000      -1.07772928E-02
   69.5000000      -3.81039362E-03
   70.0000000      -8.85507930E-03
   70.5000000      -4.52715624E-03
   71.0000000       6.25391863E-03
   71.5000000       9.40535124E-03
   72.0000000       8.62108544E-03
   72.5000000      -5.50098671E-03
   73.0000000      -3.15722451E-03
   73.5000000       3.59672616E-04
   74.0000000      -1.96069595E-03
   74.5000000       3.64708086E-03
   75.0000000       1.67594044E-04
   75.5000000      -3.76667827E-03
   76.0000000       5.55438735E-03
   76.5000000       1.04454001E-02
   77.0000000       2.72405380E-03
   77.5000000       6.95931865E-03
   78.0000000       5.81147149E-03
   78.5000000      -2.65813433E-03
   79.0000000      -4.81790584E-03
   79.5000000      -3.26908939E-03
   80.0000000      -5.62035665E-03
   80.5000000      -9.77344718E-03
   81.0000000      -5.03883790E-03
   81.5000000       3.38643906E-03
   82.0000000       8.75092112E-03
   82.5000000      -5.25350624E-04
   83.0000000      -6.78926194E-03
   83.5000000      -9.90152638E-03
   84.0000000      -8.48013535E-03
   84.5000000       2.81797023E-03
   85.0000000       8.17952119E-03
   85.5000000       3.75482690E-04
   86.0000000      -6.06721174E-03
   86.5000000      -4.40560194E-04
   87.0000000       3.20346490E-03
   87.5000000       2.76818732E-03
   88.0000000       4.72819246E-03
   88.5000000       1.32970475E-02
   89.0000000       1.13071632E-02
   89.5000000       5.89667540E-03
   90.0000000       6.39900891E-03
   90.5000000      -1.02207472E-03
   91.0000000      -4.26086038E-03
   91.5000000      -5.28707681E-03
   92.0000000      -1.35012635E-03
   92.5000000       1.07772173E-02
   93.0000000       1.29250027E-02
   93.5000000      -2.02159793E-03
   94.0000000      -1.82669109E-03
   94.5000000      -1.94613484E-03
   95.0000000      -1.07785249E-02
   95.5000000       1.92983728E-03
   96.0000000       6.50850730E-03
   96.5000000      -4.78143775E-04
   97.0000000      -3.73296742E-03
   97.5000000      -3.31667275E-03
   98.0000000       5.98555803E-03
   98.5000000       2.36919778E-03
   99.0000000      -4.50724550E-03
   99.5000000      -6.19670027E-04
   100.000000       3.75665817E-03
   100.500000       1.94829132E-03
   101.000000      -8.45453143E-03
   101.500000      -5.97411441E-03
   102.000000      -1.92282107E-02
   102.500000      -1.81418881E-02
   103.000000      -2.51098390E-04
   103.500000      -6.55017619E-04
   104.000000       5.61420340E-04
   104.500000      -3.43804597E-04
   105.000000       2.58768036E-04
   105.500000      -1.54710215E-04
   106.000000       4.66984711E-05
   106.500000      -4.94682572E-05
   107.000000       4.42683449E-05
   107.500000       3.01306245E-05
   108.000000      -5.58184693E-05
   108.500000       4.06975960E-05
   109.000000      -3.34647084E-05
   109.500000       1.07802764E-04
   110.000000      -7.08483785E-05
   110.500000       9.09642113E-05
   111.000000       8.77050297E-06
   111.500000       1.31722394E-04
   112.000000       9.96531890E-06
   112.500000       8.52806843E-05
   113.000000      -4.14430833E-05
   113.500000      -5.79899206E-05
   114.000000      -2.71412364E-06
   114.500000       7.84462841E-08
   115.000000      -2.15447526E-09
   115.500000       2.93919840E-08
   116.000000       6.81891592E-08
   116.500000      -6.21691782E-08
   117.000000      -5.80277071E-09
   117.500000      -2.29836186E-08
   118.000000       1.57310112E-08
   118.500000       3.44697888E-08
   119.000000       7.23965385E-08
   119.500000       8.56881712E-08
   120.000000      -7.25000575E-08
   120.500000      -1.30451653E-07
   121.000000      -1.38353320E-08
   121.500000       4.25224123E-08
   122.000000       6.67812685E-08
   122.500000       7.51404698E-08
   123.000000      -1.66829495E-09
   123.500000      -1.21774901E-08
   124.000000      -1.17744406E-07
   124.500000      -9.45286942E-08
   125.000000       1.32544269E-08
   125.500000       1.37191378E-07
   126.000000       7.69207276E-08
   126.500000      -4.57948124E-09
   127.000000       3.16284847E-08
   127.500000       2.06453681E-08
   128.000000      -5.51621895E-08
   128.500000       9.30566202E-09
   129.000000       1.14557984E-07
   129.500000      -1.43111594E-08
   130.000000      -9.91458826E-09
   130.500000      -1.75510209E-07
   131.000000      -2.44018565E-07
   131.500000       1.20818797E-07
   132.000000       2.16237950E-07
   132.500000       7.36831396E-08
   133.000000      -6.87565631E-08
   133.500000      -1.69011287E-07
   134.000000       1.53160371E-07
   134.500000       9.62782138E-08
   135.000000      -1.47050372E-07
   135.500000      -2.66163038E-08
   136.000000      -4.62705643E-08
   136.500000       1.28527713E-08
   137.000000       7.42222568E-08
   137.500000       1.58551742E-07
   138.000000      -1.52829416E-09
   138.500000      -1.91927072E-07
   139.000000      -9.42898453E-08
   139.500000       6.97929252E-08
   140.000000       1.47445292E-07
   140.500000       9.22440648E-08
   141.000000       3.97459736E-08
   141.500000      -9.24236332E-08
   142.000000      -2.17907512E-07
   142.500000      -2.42543422E-07
   143.000000       1.03235614E-07
   143.500000       2.63314888E-07
   144.000000      -4.85327112E-09
   144.500000      -2.00630641E-08
   145.000000       4.19440873E-08
   145.500000      -5.38417595E-08
   146.000000      -8.62863914E-08
   146.500000      -1.09302626E-07
   147.000000      -6.89462487E-09
   147.500000       1.46813989E-07
   148.000000      -9.84896609E-09
   148.500000       2.15495248E-08
   149.000000       6.55591208E-08
   149.500000       4.42716903E-08
   150.000000       1.15324688E-07
   150.500000      -2.78355969E-08
   151.000000      -6.43278355E-08
   151.500000      -5.16072802E-08
   152.000000      -3.13212638E-08
   152.500000      -2.32736159E-08
   153.000000       5.25319948E-08
   153.500000       3.80664105E-08
   154.000000      -8.77411310E-10
   154.500000      -2.81435746E-08
   155.000000      -6.95717972E-08
   155.500000       2.41402764E-09
   156.000000       7.32975138E-08
   156.500000       9.28753536E-08
   157.000000      -1.17587014E-07
   157.500000      -7.52838716E-08
   158.000000       1.01652581E-07
   158.500000      -7.79148266E-08
   159.000000      -1.40900013E-07
   159.500000       3.79365659E-08
